1.039390850 1110.0
1.118172546 1401.0
1.196954242 1791.0
1.275735938 2313.0
1.354517634 3433.0
1.433299330 4480.0
1.512081026 5236.0
1.590862722 5869.0
1.669644418 6095.0
1.748426114 6139.0
1.827207810 6151.0
1.905989507 6460.0
1.984771203 6508.0
2.063552899 6598.0
2.142334595 6753.0
2.221116291 7042.0
2.299897987 7507.0
2.378679683 7680.0
2.457461379 8418.0
2.536243075 9285.0
2.615024771 11713.0
2.693806467 9896.0
2.772588163 6807.0
2.851369859 6805.0
2.930151555 7034.0
3.008933251 7368.0
3.087714947 7860.0
3.166496643 6586.0
3.245278339 6004.0
3.324060035 6165.0
3.402841731 6191.0
3.481623428 6255.0
3.560405124 6322.0
3.639186820 6290.0
3.717968516 6362.0
3.796750212 6256.0
3.875531908 6276.0
3.954313604 6430.0
4.033095300 6434.0
4.111876996 6384.0
4.190658692 6615.0
4.269440388 6573.0
4.348222084 6664.0
4.427003780 6605.0
4.505785476 6782.0
4.584567172 6857.0
4.663348868 6966.0
4.742130564 6928.0
4.820912260 7150.0
4.899693956 7153.0
4.978475652 7322.0
5.057257349 7830.0
5.136039045 8248.0
5.214820741 8706.0
5.293602437 9442.0
5.372384133 9381.0
5.451165829 9355.0
5.529947525 10060.0
5.608729221 11047.0
5.687510917 12817.0
5.766292613 14908.0
5.845074309 17661.0
5.923856005 18194.0
6.002637701 16214.0
6.081419397 11251.0
6.160201093 9770.0
6.238982789 9730.0
6.317764485 9436.0
6.396546181 8871.0
6.475327877 8347.0
6.554109573 8803.0
6.632891269 9471.0
6.711672966 9012.0
6.790454662 7946.0
6.869236358 7701.0
6.948018054 7638.0
7.026799750 7791.0
7.105581446 7646.0
7.184363142 7630.0
7.263144838 7640.0
7.341926534 7784.0
7.420708230 7938.0
7.499489926 8178.0
7.578271622 8100.0
7.657053318 7727.0
7.735835014 7690.0
7.814616710 7635.0
7.893398406 7566.0
7.972180102 7186.0
8.050961798 6922.0
8.129743494 7053.0
8.208525190 6964.0
8.287306887 6824.0
8.366088583 6830.0
8.444870279 6818.0
8.523651975 7039.0
8.602433671 7045.0
8.681215367 6773.0
8.759997063 6620.0
8.838778759 6649.0
8.917560455 6678.0
8.996342151 6524.0
9.075123847 6703.0
9.153905543 6515.0
9.232687239 6601.0
9.311468935 6499.0
9.390250631 6573.0
9.469032327 6478.0
9.547814023 6539.0
9.626595719 6588.0
9.705377415 6608.0
9.784159111 6584.0
9.862940807 6568.0
9.941722504 6434.0
10.020504200 6573.0
10.099285896 6566.0
10.178067592 6642.0
10.256849288 6705.0
10.335630984 6426.0
10.414412680 6773.0
10.493194376 6683.0
10.571976072 6961.0
10.650757768 6865.0
10.729539464 6970.0
10.808321160 7071.0
10.887102856 7195.0
10.965884552 7419.0
11.044666248 7454.0
11.123447944 7154.0
11.202229640 6964.0
11.281011336 7083.0
11.359793032 7027.0
11.438574728 7120.0
11.517356425 7167.0
11.596138121 6964.0
11.674919817 7270.0
11.753701513 7235.0
11.832483209 7458.0
11.911264905 7659.0
11.990046601 7579.0
12.068828297 7547.0
12.147609993 7390.0
12.226391689 7321.0
12.305173385 7545.0
12.383955081 7432.0
12.462736777 7451.0
12.541518473 7371.0
12.620300169 7269.0
12.699081865 7499.0
12.777863561 7567.0
12.856645257 7680.0
12.935426953 7862.0
13.014208649 7868.0
13.092990346 7801.0
13.171772042 7681.0
13.250553738 7608.0
13.329335434 7757.0
13.408117130 7728.0
13.486898826 7901.0
13.565680522 7884.0
13.644462218 7846.0
13.723243914 8248.0
13.802025610 8323.0
13.880807306 8275.0
13.959589002 8071.0
14.038370698 8093.0
14.117152394 8276.0
14.195934090 8035.0
14.274715786 8253.0
14.353497482 8263.0
14.432279178 8305.0
14.511060874 8369.0
14.589842570 8448.0
14.668624266 8602.0
14.747405963 8480.0
14.826187659 8623.0
14.904969355 9030.0
14.983751051 9361.0
15.062532747 9323.0
15.141314443 9277.0
15.220096139 9382.0
15.298877835 9155.0
15.377659531 9413.0
15.456441227 9717.0
15.535222923 10360.0
15.614004619 10756.0
15.692786315 10597.0
15.771568011 10172.0
15.850349707 10293.0
15.929131403 10528.0
16.007913099 10558.0
16.086694795 10869.0
16.165476491 10986.0
16.244258187 11416.0
16.323039884 11156.0
16.401821580 11045.0
16.480603276 10940.0
16.559384972 11402.0
16.638166668 11633.0
16.716948364 11698.0
16.795730060 11792.0
16.874511756 11720.0
16.953293452 12174.0
17.032075148 12397.0
17.110856844 12562.0
17.189638540 12795.0
17.268420236 13140.0
17.347201932 13161.0
17.425983628 13484.0
17.504765324 13552.0
17.583547020 13576.0
17.662328716 13936.0
17.741110412 14167.0
17.819892108 14590.0
17.898673804 14687.0
17.977455501 15222.0
18.056237197 15700.0
18.135018893 16057.0
18.213800589 16213.0
18.292582285 16694.0
18.371363981 16780.0
18.450145677 16671.0
18.528927373 17004.0
18.607709069 16910.0
18.686490765 17326.0
18.765272461 17984.0
18.844054157 18023.0
18.922835853 18072.0
19.001617549 18371.0
19.080399245 19038.0
19.159180941 19246.0
19.237962637 19873.0
19.316744333 20597.0
19.395526029 21098.0
19.474307725 21972.0
19.553089422 21869.0
19.631871118 21918.0
19.710652814 22263.0
19.789434510 22267.0
19.868216206 22210.0
19.946997902 22986.0
20.025779598 23684.0
20.104561294 23626.0
20.183342990 23217.0
20.262124686 23267.0
20.340906382 22924.0
20.419688078 23214.0
20.498469774 23602.0
20.577251470 23540.0
20.656033166 23468.0
20.734814862 23480.0
20.813596558 22812.0
20.892378254 22635.0
20.971159950 22962.0
21.049941646 23693.0
21.128723343 23576.0
21.207505039 23159.0
21.286286735 23035.0
21.365068431 22873.0
21.443850127 22529.0
21.522631823 21922.0
21.601413519 21154.0
21.680195215 20624.0
21.758976911 20476.0
21.837758607 20762.0
21.916540303 20383.0
21.995321999 20924.0
22.074103695 21786.0
22.152885391 22149.0
22.231667087 21412.0
22.310448783 20090.0
22.389230479 19258.0
22.468012175 18785.0
22.546793871 18264.0
22.625575567 18332.0
22.704357263 17841.0
22.783138960 17790.0
22.861920656 17190.0
22.940702352 17018.0
23.019484048 16684.0
23.098265744 16602.0
23.177047440 16726.0
23.255829136 16850.0
23.334610832 16349.0
23.413392528 15978.0
23.492174224 15702.0
23.570955920 15286.0
23.649737616 14767.0
23.728519312 14897.0
23.807301008 14564.0
23.886082704 14321.0
23.964864400 14031.0
24.043646096 13961.0
24.122427792 13463.0
24.201209488 13290.0
24.279991184 13196.0
24.358772881 13125.0
24.437554577 12954.0
24.516336273 12735.0
24.595117969 12404.0
24.673899665 12342.0
24.752681361 12257.0
24.831463057 12030.0
24.910244753 11765.0
24.989026449 11742.0
25.067808145 11465.0
25.146589841 11357.0
25.225371537 11083.0
25.304153233 11085.0
25.382934929 10825.0
25.461716625 10735.0
25.540498321 10501.0
25.619280017 10507.0
25.698061713 10426.0
25.776843409 10272.0
25.855625105 10081.0
25.934406801 9977.0
26.013188498 10016.0
26.091970194 9953.0
26.170751890 9651.0
26.249533586 9776.0
26.328315282 9445.0
26.407096978 9470.0
26.485878674 9170.0
26.564660370 8971.0
26.643442066 8968.0
26.722223762 9064.0
26.801005458 8908.0
26.879787154 8840.0
26.958568850 8599.0
27.037350546 8910.0
27.116132242 8800.0
27.194913938 8628.0
27.273695634 8674.0
27.352477330 8513.0
27.431259026 8405.0
27.510040722 8423.0
27.588822419 8356.0
27.667604115 8028.0
27.746385811 8159.0
27.825167507 8092.0
27.903949203 7866.0
27.982730899 7847.0
28.061512595 7996.0
28.140294291 7647.0
28.219075987 7770.0
28.297857683 7553.0
28.376639379 7392.0
28.455421075 7517.0
28.534202771 7229.0
28.612984467 7256.0
28.691766163 7094.0
28.770547859 6967.0
28.849329555 7014.0
28.928111251 6883.0
29.006892947 6976.0
29.085674643 6837.0
29.164456340 6687.0
29.243238036 6645.0
29.322019732 6414.0
29.400801428 6679.0
29.479583124 6473.0
29.558364820 6344.0
29.637146516 6323.0
29.715928212 6429.0
29.794709908 6300.0
29.873491604 6340.0
29.952273300 6216.0
