1.039390850 1346.0
1.118172546 1439.0
1.196954242 1775.0
1.275735938 2247.0
1.354517634 2872.0
1.433299330 3612.0
1.512081026 4766.0
1.590862722 5844.0
1.669644418 6477.0
1.748426114 6829.0
1.827207810 7207.0
1.905989507 8364.0
1.984771203 11153.0
2.063552899 13224.0
2.142334595 6182.0
2.221116291 6209.0
2.299897987 6088.0
2.378679683 6125.0
2.457461379 6207.0
2.536243075 6193.0
2.615024771 6110.0
2.693806467 6074.0
2.772588163 6329.0
2.851369859 6136.0
2.930151555 6289.0
3.008933251 6356.0
3.087714947 6607.0
3.166496643 6606.0
3.245278339 6661.0
3.324060035 6737.0
3.402841731 6862.0
3.481623428 6851.0
3.560405124 6823.0
3.639186820 6928.0
3.717968516 7226.0
3.796750212 7012.0
3.875531908 7217.0
3.954313604 7336.0
4.033095300 7553.0
4.111876996 7973.0
4.190658692 7585.0
4.269440388 7649.0
4.348222084 7619.0
4.427003780 7772.0
4.505785476 7866.0
4.584567172 7837.0
4.663348868 7865.0
4.742130564 8123.0
4.820912260 7985.0
4.899693956 8301.0
4.978475652 8207.0
5.057257349 8384.0
5.136039045 8717.0
5.214820741 8482.0
5.293602437 8713.0
5.372384133 8648.0
5.451165829 8727.0
5.529947525 8929.0
5.608729221 8844.0
5.687510917 9030.0
5.766292613 9280.0
5.845074309 9190.0
5.923856005 9244.0
6.002637701 8976.0
6.081419397 9200.0
6.160201093 9185.0
6.238982789 8993.0
6.317764485 9089.0
6.396546181 8827.0
6.475327877 8691.0
6.554109573 8571.0
6.632891269 8619.0
6.711672966 8531.0
6.790454662 8260.0
6.869236358 8241.0
6.948018054 8206.0
7.026799750 8224.0
7.105581446 8103.0
7.184363142 7974.0
7.263144838 7856.0
7.341926534 7725.0
7.420708230 7804.0
7.499489926 7580.0
7.578271622 7501.0
7.657053318 7531.0
7.735835014 7638.0
7.814616710 7564.0
7.893398406 7348.0
7.972180102 7322.0
8.050961798 7300.0
8.129743494 7347.0
8.208525190 7220.0
8.287306887 7214.0
8.366088583 6976.0
8.444870279 7087.0
8.523651975 7217.0
8.602433671 7133.0
8.681215367 7032.0
8.759997063 7057.0
8.838778759 7070.0
8.917560455 7052.0
8.996342151 7052.0
9.075123847 6900.0
9.153905543 7010.0
9.232687239 6952.0
9.311468935 6885.0
9.390250631 7046.0
9.469032327 6913.0
9.547814023 7025.0
9.626595719 6934.0
9.705377415 6836.0
9.784159111 6963.0
9.862940807 6975.0
9.941722504 7024.0
10.020504200 7003.0
10.099285896 6914.0
10.178067592 6991.0
10.256849288 6876.0
10.335630984 6957.0
10.414412680 6974.0
10.493194376 7129.0
10.571976072 7031.0
10.650757768 7189.0
10.729539464 7006.0
10.808321160 7193.0
10.887102856 7050.0
10.965884552 7351.0
11.044666248 7242.0
11.123447944 7335.0
11.202229640 7105.0
11.281011336 7304.0
11.359793032 7396.0
11.438574728 7431.0
11.517356425 7441.0
11.596138121 7355.0
11.674919817 7484.0
11.753701513 7367.0
11.832483209 7585.0
11.911264905 7581.0
11.990046601 7529.0
12.068828297 7694.0
12.147609993 7551.0
12.226391689 7552.0
12.305173385 7580.0
12.383955081 7634.0
12.462736777 7734.0
12.541518473 7867.0
12.620300169 7822.0
12.699081865 7898.0
12.777863561 7845.0
12.856645257 8025.0
12.935426953 8091.0
13.014208649 8170.0
13.092990346 8228.0
13.171772042 8170.0
13.250553738 8168.0
13.329335434 8437.0
13.408117130 8263.0
13.486898826 8140.0
13.565680522 8487.0
13.644462218 8599.0
13.723243914 8487.0
13.802025610 8656.0
13.880807306 8742.0
13.959589002 8757.0
14.038370698 8878.0
14.117152394 8873.0
14.195934090 9023.0
14.274715786 9109.0
14.353497482 9029.0
14.432279178 9336.0
14.511060874 9101.0
14.589842570 9415.0
14.668624266 9520.0
14.747405963 9596.0
14.826187659 9519.0
14.904969355 9903.0
14.983751051 9855.0
15.062532747 10027.0
15.141314443 9954.0
15.220096139 9972.0
15.298877835 9825.0
15.377659531 10155.0
15.456441227 10555.0
15.535222923 10662.0
15.614004619 10468.0
15.692786315 10720.0
15.771568011 10807.0
15.850349707 11179.0
15.929131403 11176.0
16.007913099 11157.0
16.086694795 11443.0
16.165476491 11655.0
16.244258187 11713.0
16.323039884 11965.0
16.401821580 12010.0
16.480603276 12048.0
16.559384972 12214.0
16.638166668 12380.0
16.716948364 12391.0
16.795730060 13039.0
16.874511756 13114.0
16.953293452 13063.0
17.032075148 13403.0
17.110856844 13503.0
17.189638540 13873.0
17.268420236 14094.0
17.347201932 14007.0
17.425983628 14499.0
17.504765324 14174.0
17.583547020 14821.0
17.662328716 15047.0
17.741110412 15398.0
17.819892108 15602.0
17.898673804 15480.0
17.977455501 15848.0
18.056237197 15962.0
18.135018893 16071.0
18.213800589 16444.0
18.292582285 16537.0
18.371363981 17176.0
18.450145677 17418.0
18.528927373 17480.0
18.607709069 17862.0
18.686490765 18089.0
18.765272461 18279.0
18.844054157 18412.0
18.922835853 18708.0
19.001617549 18969.0
19.080399245 19046.0
19.159180941 19335.0
19.237962637 19638.0
19.316744333 19947.0
19.395526029 19993.0
19.474307725 20010.0
19.553089422 20309.0
19.631871118 20548.0
19.710652814 20813.0
19.789434510 20781.0
19.868216206 21149.0
19.946997902 21220.0
20.025779598 21016.0
20.104561294 21246.0
20.183342990 21431.0
20.262124686 21314.0
20.340906382 21117.0
20.419688078 21493.0
20.498469774 21275.0
20.577251470 21150.0
20.656033166 21323.0
20.734814862 21317.0
20.813596558 21362.0
20.892378254 21125.0
20.971159950 21052.0
21.049941646 20800.0
21.128723343 20618.0
21.207505039 20583.0
21.286286735 20636.0
21.365068431 20420.0
21.443850127 20173.0
21.522631823 19928.0
21.601413519 19617.0
21.680195215 19688.0
21.758976911 19263.0
21.837758607 19344.0
21.916540303 18832.0
21.995321999 18546.0
22.074103695 18624.0
22.152885391 18395.0
22.231667087 18275.0
22.310448783 18049.0
22.389230479 17814.0
22.468012175 17522.0
22.546793871 17346.0
22.625575567 17330.0
22.704357263 17080.0
22.783138960 16564.0
22.861920656 16227.0
22.940702352 16309.0
23.019484048 16044.0
23.098265744 15966.0
23.177047440 15406.0
23.255829136 15324.0
23.334610832 15283.0
23.413392528 14872.0
23.492174224 14812.0
23.570955920 14365.0
23.649737616 14403.0
23.728519312 14195.0
23.807301008 14142.0
23.886082704 13852.0
23.964864400 13362.0
24.043646096 13464.0
24.122427792 13132.0
24.201209488 13081.0
24.279991184 12743.0
24.358772881 12769.0
24.437554577 12782.0
24.516336273 12189.0
24.595117969 12186.0
24.673899665 12263.0
24.752681361 11954.0
24.831463057 11915.0
24.910244753 11621.0
24.989026449 11321.0
25.067808145 11250.0
25.146589841 11072.0
25.225371537 11136.0
25.304153233 10889.0
25.382934929 10687.0
25.461716625 10533.0
25.540498321 10555.0
25.619280017 10341.0
25.698061713 10382.0
25.776843409 9990.0
25.855625105 9980.0
25.934406801 9835.0
26.013188498 9578.0
26.091970194 9522.0
26.170751890 9446.0
26.249533586 9621.0
26.328315282 9321.0
26.407096978 9198.0
26.485878674 9105.0
26.564660370 8958.0
26.643442066 8828.0
26.722223762 9024.0
26.801005458 8533.0
26.879787154 8565.0
26.958568850 8507.0
27.037350546 8420.0
27.116132242 8381.0
27.194913938 8333.0
27.273695634 8103.0
27.352477330 8125.0
27.431259026 8031.0
27.510040722 8037.0
27.588822419 8016.0
27.667604115 7848.0
27.746385811 7786.0
27.825167507 7842.0
27.903949203 7672.0
27.982730899 7224.0
28.061512595 7456.0
28.140294291 7525.0
28.219075987 7190.0
28.297857683 7163.0
28.376639379 7087.0
28.455421075 7270.0
28.534202771 6975.0
28.612984467 6921.0
28.691766163 6745.0
28.770547859 6905.0
28.849329555 6665.0
28.928111251 6634.0
29.006892947 6613.0
29.085674643 6468.0
29.164456340 6558.0
29.243238036 6444.0
29.322019732 6433.0
29.400801428 6342.0
29.479583124 6376.0
29.558364820 6276.0
29.637146516 6261.0
29.715928212 6028.0
29.794709908 5995.0
29.873491604 5946.0
29.952273300 6029.0
